count wavelength
118848 9165.64
116347 9371.29
116122 10605.22
113948 9939.87
113422 9462.02
113165 10193.91
113002 11385.50
112883 11851.24
112580 9830.99
112530 10417.71
112410 10460.05
112398 10943.94
112389 10847.17
112373 11318.96
112289 11107.26
112284 11591.15
112199 9589.04
111352 10127.37
111163 11796.81
110727 12111.34
110668 12401.67
110616 12546.84
110499 8941.84
110383 8645.45
109925 8863.20
109897 12262.55
109747 12571.04
109721 8421.65
109682 8627.31
109630 12903.71
109399 8095.02
109320 12800.88
109286 7296.60
109229 8252.29
109203 7744.20
109166 7907.51
109127 7726.05
108900 13157.76
108879 7478.06
108830 7248.21
108712 13315.02
108564 5911.45
108365 6026.38
108297 13647.70
108217 13599.31
108206 6909.48
108196 6982.07
108186 6225.99
108174 13466.24
108168 5457.80
108142 6679.64
108119 6552.61
108052 6177.60
108048 6437.69
107989 5602.97
107977 5669.51
107955 13919.89
107584 14071.10
107064 14228.37
104951 14373.54
