count wavelength
120753 9165.64
120285 9371.29
120278 11881.49
119514 11712.13
119453 12395.62
119114 11990.36
118898 12528.69
118266 12129.48
118235 12589.18
118062 11579.05
116322 12831.13
115962 11373.40
113874 9437.83
113222 10956.04
112744 12982.34
112369 10798.78
111247 13054.93
111193 11185.89
110949 13315.02
110435 11282.67
109651 13454.14
109400 13617.45
109357 10417.71
108280 10617.32
107606 10466.10
107180 9667.68
106655 9958.01
105572 9722.11
105232 10109.23
104561 13774.72
104517 10260.45
104506 13913.84
104053 14010.62
103786 8947.88
103669 14222.32
103626 8814.81
103544 8651.50
103354 8373.26
103343 8512.38
103139 14373.54
102967 8252.29
102883 8052.68
102877 7744.20
102821 7284.50
102767 7726.05
102720 7260.31
102542 5905.41
102538 7478.06
102489 7895.42
102460 5953.80
102379 6219.94
101829 6171.55
101569 6988.12
101407 6558.66
101406 6467.93
101236 6685.68
100965 6861.10
100949 5602.97
100451 5439.66
94781 5633.22
