count wavelength
105912 11046.77
101922 9298.71
99129 9915.67
97955 10363.27
97660 9812.84
97645 11022.58
97460 11579.05
97354 8917.64
97234 11808.90
97102 8826.91
97045 12032.70
96629 10568.93
96247 8312.77
95726 8179.70
95717 7931.71
95608 12510.55
95588 12595.23
95502 7423.62
95421 7181.67
95351 6056.62
95032 6812.71
94780 13109.37
94628 6625.20
94621 6401.40
94526 5621.12
94473 13357.36
94356 13508.58
93407 14010.62
0 14349.34
