count wavelength
106876 130.51
104186 132.73
102555 144.86
100825 146.87
100787 150.54
99068 152.97
98858 148.19
98376 141.39
98133 155.60
97974 158.17
97782 142.29
97759 135.43
97519 133.90
97460 137.30
97441 160.66
97398 156.64
97306 124.61
97038 161.36
96984 139.03
96806 121.43
96723 149.92
96554 126.83
96507 123.51
96329 163.65
96218 114.22
96197 128.01
96013 164.62
95910 116.16
95841 118.03
95827 120.32
95623 108.81
95545 108.95
95531 167.60
95439 114.01
95418 169.05
95318 111.17
95300 173.35
95299 170.92
95082 99.38
95078 172.17
95055 93.21
95030 93.35
94914 102.57
94896 96.19
94868 104.23
94782 105.83
94719 101.39
94708 97.37
94672 89.67
94665 87.73
94628 90.23
94624 175.08
94550 179.04
94390 177.86
94254 181.53
94242 184.93
94225 183.26
94185 186.59
93712 188.53
92197 190.27
