count wavelength
124382 90.23
120910 87.59
120384 88.98
119967 92.10
119096 94.67
118837 97.02
117798 99.52
116826 95.36
116056 100.35
115906 103.75
115723 111.65
115002 113.80
114579 106.24
114377 107.91
113003 110.40
112804 119.62
112210 115.46
111997 103.33
111822 118.58
111466 122.40
111317 123.16
111089 124.68
111022 130.72
110928 133.90
110715 153.39
110693 135.36
110615 132.80
110433 126.63
110391 128.22
110281 149.02
110060 150.61
110000 155.53
109929 136.61
109785 160.53
109753 156.02
109738 140.28
109704 143.82
109650 143.47
108525 161.15
108333 159.07
108090 140.01
107752 148.67
107537 117.20
107220 170.16
107146 163.30
106919 166.14
106773 176.05
106699 176.61
106471 164.62
106049 181.25
105980 182.02
105780 179.31
105108 174.67
104827 169.33
104412 186.73
104173 188.19
103778 183.75
103503 189.43
103394 145.27
102681 171.83
