count wavelength
121060 5877.95
120376 5509.93
118943 5534.46
117755 5559.00
116578 5583.53
115723 5608.07
115577 5902.48
115114 5657.13
111997 5508.95
111356 5652.72
110650 5718.47
110615 5814.16
110547 5751.84
110472 5771.47
110436 5796.49
109758 5963.33
109687 5943.70
109652 5828.88
108090 5993.26
106859 5872.55
104307 5681.67
0 6105.14
0 6014.85
0 6135.07
0 6093.36
0 6029.57
0 6171.87
0 6189.53
0 6064.90
