count wavelength
106876 887.00
104186 855.00
102555 680.00
100825 651.00
100787 598.00
99068 563.00
98858 632.00
98376 730.00
98133 525.00
97974 488.00
97782 717.00
97759 816.00
97519 838.00
97460 789.00
97441 452.00
97398 510.00
97306 972.00
97038 442.00
96984 764.00
96806 1018.00
96723 607.00
96554 940.00
96507 988.00
96329 409.00
96218 1122.00
96197 923.00
96013 395.00
95910 1094.00
95841 1067.00
95827 1034.00
95623 1200.00
95545 1198.00
95531 352.00
95439 1125.00
95418 331.00
95318 1166.00
95300 269.00
95299 304.00
95082 1336.00
95078 286.00
95055 1425.00
95030 1423.00
94914 1290.00
94896 1382.00
94868 1266.00
94782 1243.00
94719 1307.00
94708 1365.00
94672 1476.00
94665 1504.00
94628 1468.00
94624 244.00
94550 187.00
94390 204.00
94254 151.00
94242 102.00
94225 126.00
94185 78.00
93712 50.00
92197 25.00
