count wavelength
118848 887.00
116347 853.00
116122 649.00
113948 759.00
113422 838.00
113165 717.00
113002 520.00
112883 443.00
112580 777.00
112530 680.00
112410 673.00
112398 593.00
112389 609.00
112373 531.00
112289 566.00
112284 486.00
112199 817.00
111352 728.00
111163 452.00
110727 400.00
110668 352.00
110616 328.00
110499 924.00
110383 973.00
109925 937.00
109897 375.00
109747 324.00
109721 1010.00
109682 976.00
109630 269.00
109399 1064.00
109320 286.00
109286 1196.00
109229 1038.00
109203 1122.00
109166 1095.00
109127 1125.00
108900 227.00
108879 1166.00
108830 1204.00
108712 201.00
108564 1425.00
108365 1406.00
108297 146.00
108217 154.00
108206 1260.00
108196 1248.00
108186 1373.00
108174 176.00
108168 1500.00
108142 1298.00
108119 1319.00
108052 1381.00
108048 1338.00
107989 1476.00
107977 1465.00
107955 101.00
107584 76.00
107064 50.00
104951 26.00
