count wavelength
106876 9165.64
104186 9359.19
102555 10417.71
100825 10593.12
100787 10913.70
99068 11125.40
98858 10708.05
98376 10115.28
98133 11355.25
97974 11579.05
97782 10193.91
97759 9595.09
97519 9462.02
97460 9758.41
97441 11796.81
97398 11445.98
97306 8651.50
97038 11857.29
96984 9909.62
96806 8373.26
96723 10859.26
96554 8845.06
96507 8554.72
96329 12056.90
96218 7744.20
96197 8947.88
96013 12141.58
95910 7913.56
95841 8076.88
95827 8276.48
95623 7272.40
95545 7284.50
95531 12401.67
95439 7726.05
95418 12528.69
95318 7478.06
95300 12903.71
95299 12692.01
95082 6449.79
95078 12800.88
95055 5911.45
95030 5923.55
94914 6728.02
94896 6171.55
94868 6873.19
94782 7012.31
94719 6625.20
94708 6274.37
94672 5602.97
94665 5433.61
94628 5651.36
94624 13054.93
94550 13399.70
94390 13296.88
94254 13617.45
94242 13913.84
94225 13768.67
94185 14059.01
93712 14228.37
92197 14379.59
