count wavelength
118848 130.51
116347 132.86
116122 147.01
113948 139.38
113422 133.90
113165 142.29
113002 155.95
112883 161.29
112580 138.13
112530 144.86
112410 145.34
112398 150.89
112389 149.78
112373 155.19
112289 152.76
112284 158.31
112199 135.36
111352 141.53
111163 160.66
110727 164.27
110668 167.60
110616 169.26
110499 127.94
110383 124.55
109925 127.04
109897 166.00
109747 169.54
109721 121.98
109682 124.34
109630 173.35
109399 118.24
109320 172.17
109286 109.09
109229 120.04
109203 114.22
109166 116.09
109127 114.01
108900 176.26
108879 111.17
108830 108.53
108712 178.07
108564 93.21
108365 94.53
108297 181.88
108217 181.32
108206 104.65
108196 105.48
108186 96.81
108174 179.80
108168 88.01
108142 102.01
108119 100.56
108052 96.26
108048 99.24
107989 89.67
107977 90.44
107955 185.00
107584 186.73
107064 188.53
104951 190.20
