count wavelength
116652 5490.79
114425 5477.05
113776 5472.14
112097 5532.99
111307 5514.34
110996 5538.88
110686 5504.04
110522 5591.38
110067 5556.54
109680 5615.92
109442 5562.43
109093 5642.41
108998 5604.14
108612 5583.53
108022 5633.58
107950 5657.62
107844 5698.84
107750 5692.46
107159 5669.40
106787 5732.70
106730 5852.43
106651 5734.17
106592 5815.14
106504 5830.84
106237 5799.43
106103 5870.09
106055 5777.35
105947 5748.40
105900 5792.07
105820 5759.69
105790 5938.79
105788 5711.11
105753 5681.67
105605 5843.11
105603 5918.18
105549 5866.17
105454 5947.13
105453 5915.24
105320 5904.44
105070 5956.46
104833 5978.05
104647 5992.77
104585 6056.56
104379 6038.40
103989 6010.92
103958 5880.40
103948 6017.30
103861 6102.19
103807 6098.27
103508 5990.31
103444 6117.89
103335 6077.66
103259 6050.67
103151 6131.63
102933 6069.81
102824 6145.37
102754 6161.57
102597 6173.83
102455 6184.14
102386 6198.86
