count wavelength
124382 5490.79
120910 5472.14
120384 5481.96
119967 5504.04
119096 5522.19
118837 5538.88
117798 5556.54
116826 5527.10
116056 5562.43
115906 5586.47
115723 5642.41
115002 5657.62
114579 5604.14
114377 5615.92
113003 5633.58
112804 5698.84
112210 5669.40
111997 5583.53
111822 5691.48
111466 5718.47
111317 5723.87
111089 5734.66
111022 5777.35
110928 5799.93
110715 5937.81
110693 5810.23
110615 5792.07
110433 5748.40
110391 5759.69
110281 5906.90
110060 5918.18
110000 5953.02
109929 5819.06
109785 5988.35
109753 5956.46
109738 5845.07
109704 5870.09
109650 5867.64
108525 5992.77
108333 5978.05
108090 5843.11
107752 5904.44
107537 5681.67
107220 6056.56
107146 6007.98
106919 6028.10
106773 6098.27
106699 6102.19
106471 6017.30
106049 6135.07
105980 6140.47
105780 6121.33
105108 6088.45
104827 6050.67
104412 6173.83
104173 6184.14
103778 6152.73
103503 6192.97
103394 5880.40
102681 6068.33
