count wavelength
131885 87.59
130390 88.98
130235 91.48
129303 92.10
128784 97.02
128669 94.67
128388 99.52
128269 95.01
128116 100.35
127770 103.26
127757 103.75
127756 105.76
127479 107.91
126315 113.80
125953 111.65
125782 110.40
125759 115.46
125614 119.21
125235 120.25
125081 122.40
125077 117.20
124951 124.34
124867 124.68
124669 126.63
124540 128.22
124128 156.02
124059 151.31
124001 152.28
123720 150.20
123594 130.72
123480 159.07
123419 143.82
123380 155.53
123213 160.53
123173 143.26
122793 132.80
122532 140.28
120819 147.01
120301 135.36
120212 161.15
119535 134.32
119263 136.61
118187 140.01
117789 166.14
116766 163.65
116685 170.16
116567 164.62
116166 182.02
115994 176.05
115620 176.61
115278 181.25
114781 178.69
113002 145.62
112771 174.67
111486 184.93
111445 169.33
110888 171.83
110276 188.19
109423 186.73
108578 190.20
