count wavelength
131885 5472.14
130390 5481.96
130235 5499.62
129303 5504.04
128784 5538.88
128669 5522.19
128388 5556.54
128269 5524.65
128116 5562.43
127770 5583.04
127757 5586.47
127756 5600.70
127479 5615.92
126315 5657.62
125953 5642.41
125782 5633.58
125759 5669.40
125614 5695.90
125235 5703.26
125081 5718.47
125077 5681.67
124951 5732.21
124867 5734.66
124669 5748.40
124540 5759.69
124128 5956.46
124059 5923.09
124001 5929.96
123720 5915.24
123594 5777.35
123480 5978.05
123419 5870.09
123380 5953.02
123213 5988.35
123173 5866.17
122793 5792.07
122532 5845.07
120819 5892.67
120301 5810.23
120212 5992.77
119535 5802.87
119263 5819.06
118187 5843.11
117789 6028.10
116766 6010.43
116685 6056.56
116567 6017.30
116166 6140.47
115994 6098.27
115620 6102.19
115278 6135.07
114781 6116.91
113002 5882.85
112771 6088.45
111486 6161.07
111445 6050.67
110888 6068.33
110276 6184.14
109423 6173.83
108578 6198.37
