count wavelength
192769 5472.14
190170 5483.92
189897 5492.75
189774 5538.88
188459 5504.04
188401 5520.72
187633 5525.14
186376 5556.54
186129 5562.43
185750 5585.49
184752 5591.38
184548 5611.99
184137 5603.65
182944 5640.45
181895 5633.58
180041 5657.62
179590 5671.36
178644 5681.67
177901 5695.90
177781 5769.50
177743 5707.18
177640 5719.94
177119 5731.23
174701 5741.53
170974 5806.30
170702 5843.11
170475 5752.33
170008 5810.23
168645 5867.64
168173 5781.77
167448 5782.26
167397 5891.19
165176 5855.37
163557 5870.09
163464 5821.03
161898 6139.98
161333 5904.44
159631 5915.24
158853 6173.83
156646 6137.03
155179 5926.52
153083 6156.66
152343 6178.74
149236 5957.93
143278 6198.86
136256 5938.79
136016 5953.51
134405 6073.24
133297 6114.95
131962 6028.10
129282 5978.05
128438 5996.69
124773 6088.45
124654 6102.19
124260 6025.15
123155 6098.27
122505 6052.63
121451 5981.48
118556 6051.65
117125 6007.49
