count wavelength
132510 88.29
129738 87.59
129709 90.92
129654 92.10
128675 95.57
128438 94.04
127882 99.52
127636 97.02
127438 100.35
127249 103.47
126882 107.08
126809 107.91
126579 104.58
125935 110.40
125911 111.72
125471 113.80
124769 115.46
124333 122.26
123455 117.20
122711 120.25
122426 119.14
122408 124.41
122083 127.46
121887 126.14
121717 130.65
121529 128.22
120077 135.71
119823 134.67
119663 136.61
119425 132.80
119306 141.53
119213 140.01
119193 143.47
119172 143.82
118509 145.48
117874 150.20
117823 152.90
117665 147.01
115481 157.20
115172 152.07
115035 155.40
115015 159.07
114617 161.15
113739 163.65
113431 160.80
113134 165.86
112249 166.14
112150 169.33
111789 173.07
111760 170.92
111747 176.05
111289 172.45
110670 183.33
110607 176.47
110407 179.17
110359 180.84
110096 186.38
109572 185.07
109026 188.19
108767 190.27
