count wavelength
124815 887.00
124798 853.00
124580 366.00
124410 476.00
123801 438.00
123740 397.00
123349 450.00
123145 842.00
123021 270.00
122565 329.00
122504 420.00
122385 519.00
122125 284.00
120778 304.00
120610 591.00
120436 244.00
120254 553.00
120167 615.00
119891 532.00
119802 645.00
119770 680.00
119763 201.00
119727 652.00
119539 178.00
119243 804.00
119110 730.00
119067 151.00
118945 143.00
118342 724.00
118268 1122.00
118241 778.00
118045 771.00
118021 1197.00
117927 1202.00
117874 924.00
117758 1125.00
117637 101.00
117214 945.00
117121 1166.00
116959 977.00
116757 1065.00
116748 1425.00
116690 86.00
116651 974.00
116468 1038.00
116433 1082.00
116377 1418.00
116188 1013.00
115985 1379.00
115930 50.00
115874 1504.00
115716 1369.00
115599 1465.00
115313 1476.00
115125 1333.00
114978 1249.00
114851 1295.00
114550 1269.00
113551 25.00
110053 1304.00
