count wavelength
116132 130.51
114770 133.07
113310 163.92
113114 167.39
113100 161.64
112807 159.07
112798 164.34
112718 160.80
112538 153.94
112339 168.91
112282 155.95
112259 153.66
111877 151.03
111331 149.36
110910 173.35
110806 144.86
110414 170.92
110286 147.08
110249 172.31
110197 145.34
110094 134.74
110008 109.02
109975 138.55
109750 178.83
109678 135.85
109562 142.02
109477 137.02
109397 114.22
108841 178.00
108836 140.28
108790 175.08
108788 108.74
108629 114.01
108566 127.94
108548 125.10
108534 93.21
108528 121.56
108358 126.69
108332 120.04
108034 181.39
107982 122.74
107918 111.17
107804 118.44
107694 116.85
107683 182.92
107558 94.53
107457 184.93
107436 96.68
107301 90.37
107294 99.59
107142 87.80
107135 89.33
107067 101.39
106608 97.37
106607 186.59
106488 103.75
106181 105.76
105567 102.50
105477 188.46
102494 190.06
