count wavelength
124815 9165.64
124798 9371.29
124580 12316.99
124410 11651.64
123801 11881.49
123740 12129.48
123349 11808.90
123145 9437.83
123021 12897.66
122565 12540.79
122504 11990.36
122385 11391.55
122125 12812.98
120778 12692.01
120610 10956.04
120436 13054.93
120254 11185.89
120167 10810.87
119891 11312.91
119802 10629.41
119770 10417.71
119763 13315.02
119727 10587.07
119539 13454.14
119243 9667.68
119110 10115.28
119067 13617.45
118945 13665.84
118342 10151.57
118268 7744.20
118241 9824.94
118045 9867.28
118021 7290.55
117927 7260.31
117874 8941.84
117758 7726.05
117637 13919.89
117214 8814.81
117121 7478.06
116959 8621.26
116757 8088.97
116748 5911.45
116690 14010.62
116651 8639.40
116468 8252.29
116433 7986.15
116377 5953.80
116188 8403.50
115985 6189.69
115930 14228.37
115874 5433.61
115716 6250.18
115599 5669.51
115313 5602.97
115125 6467.93
114978 6976.02
114851 6697.78
114550 6855.05
113551 14379.59
110053 6643.34
