count wavelength
116132 9165.64
114770 9389.44
113310 12081.09
113114 12383.53
113100 11881.49
112807 11657.69
112798 12117.39
112718 11808.90
112538 11210.09
112339 12516.60
112282 11385.50
112259 11185.89
111877 10956.04
111331 10810.87
110910 12903.71
110806 10417.71
110414 12692.01
110286 10611.27
110249 12812.98
110197 10460.05
110094 9534.61
110008 7290.55
109975 9867.28
109750 13381.56
109678 9631.38
109562 10169.72
109477 9734.21
109397 7744.20
108841 13308.97
108836 10018.50
108790 13054.93
108788 7266.36
108629 7726.05
108566 8941.84
108548 8693.84
108534 5911.45
108528 8385.36
108358 8832.96
108332 8252.29
108034 13605.36
107982 8488.19
107918 7478.06
107804 8113.17
107694 7974.05
107683 13738.43
107558 6026.38
107457 13913.84
107436 6213.89
107301 5663.46
107294 6467.93
107142 5439.66
107135 5572.73
107067 6625.20
106608 6274.37
106607 14059.01
106488 6830.85
106181 7006.26
105567 6721.98
105477 14222.32
102494 14361.44
