count wavelength
132510 5477.05
129738 5472.14
129709 5495.70
129654 5504.04
128675 5528.57
128438 5517.78
127882 5556.54
127636 5538.88
127438 5562.43
127249 5584.51
126882 5610.03
126809 5615.92
126579 5592.36
125935 5633.58
125911 5642.90
125471 5657.62
124769 5669.40
124333 5717.49
123455 5681.67
122711 5703.26
122426 5695.41
122408 5732.70
122083 5754.29
121887 5744.97
121717 5776.86
121529 5759.69
120077 5812.68
119823 5805.32
119663 5819.06
119425 5792.07
119306 5853.90
119213 5843.11
119193 5867.64
119172 5870.09
118509 5881.87
117874 5915.24
117823 5934.38
117665 5892.67
115481 5964.80
115172 5928.49
115035 5952.04
115015 5978.05
114617 5992.77
113739 6010.43
113431 5990.31
113134 6026.13
112249 6028.10
112150 6050.67
111789 6077.17
111760 6061.96
111747 6098.27
111289 6072.75
110670 6149.79
110607 6101.21
110407 6120.35
110359 6132.12
110096 6171.38
109572 6162.06
109026 6184.14
108767 6198.86
