count wavelength
148405 5472.14
147926 5484.90
147432 5496.68
147377 5504.04
147288 5538.88
147139 5522.19
147083 5556.54
146537 5527.10
145901 5562.43
145790 5584.02
144740 5591.38
144732 5615.92
144527 5610.03
144472 5633.58
143969 5657.62
143630 5645.85
143092 5669.40
141598 5695.41
140407 5681.67
139093 5720.43
139038 5698.84
137977 5731.72
137921 5738.59
137494 5777.35
137258 5748.40
136722 5759.69
134078 5792.07
134077 5806.30
133852 5810.23
133505 5854.88
132962 5819.06
132571 5843.11
132420 5870.09
132360 5866.17
130905 5880.40
129765 5896.10
129651 5915.24
127122 5928.49
126343 5930.94
125061 5956.46
124638 5948.61
124609 5978.05
123893 5992.77
122147 6010.43
121422 5990.31
121048 6017.30
119389 6147.83
119044 6028.10
118919 6159.60
118059 6058.52
117553 6098.27
117027 6050.67
115592 6073.24
115576 6174.81
115514 6125.75
115486 6115.44
114448 6173.83
113480 6102.19
113053 6085.51
112351 6198.86
