count wavelength
124815 130.51
124798 132.86
124580 166.63
124410 159.00
123801 161.64
123740 164.48
123349 160.80
123145 133.63
123021 173.28
122565 169.19
122504 162.88
122385 156.02
122125 172.31
120778 170.92
120610 151.03
120436 175.08
120254 153.66
120167 149.36
119891 155.12
119802 147.28
119770 144.86
119763 178.07
119727 146.80
119539 179.66
119243 136.26
119110 141.39
119067 181.53
118945 182.09
118342 141.81
118268 114.22
118241 138.06
118045 138.55
118021 109.02
117927 108.67
117874 127.94
117758 114.01
117637 185.00
117214 126.49
117121 111.17
116959 124.27
116757 118.17
116748 93.21
116690 186.04
116651 124.48
116468 120.04
116433 116.99
116377 93.70
116188 121.77
115985 96.40
115930 188.53
115874 87.73
115716 97.09
115599 90.44
115313 89.67
115125 99.59
114978 105.41
114851 102.22
114550 104.02
113551 190.27
110053 101.60
