count wavelength
116132 887.00
114770 850.00
113310 405.00
113114 355.00
113100 438.00
112807 475.00
112798 399.00
112718 450.00
112538 549.00
112339 333.00
112282 520.00
112259 553.00
111877 591.00
111331 615.00
110910 269.00
110806 680.00
110414 304.00
110286 648.00
110249 284.00
110197 673.00
110094 826.00
110008 1197.00
109975 771.00
109750 190.00
109678 810.00
109562 721.00
109477 793.00
109397 1122.00
108841 202.00
108836 746.00
108790 244.00
108788 1201.00
108629 1125.00
108566 924.00
108548 965.00
108534 1425.00
108528 1016.00
108358 942.00
108332 1038.00
108034 153.00
107982 999.00
107918 1166.00
107804 1061.00
107694 1084.00
107683 131.00
107558 1406.00
107457 102.00
107436 1375.00
107301 1466.00
107294 1333.00
107142 1503.00
107135 1481.00
107067 1307.00
106608 1365.00
106607 78.00
106488 1273.00
106181 1244.00
105567 1291.00
105477 51.00
102494 28.00
