count wavelength
150020 5828.88
147243 5509.93
146898 5534.46
146825 5559.00
146491 6025.15
145077 6000.62
142127 5877.95
140008 5853.41
138815 5508.95
137595 5606.59
134230 5652.72
131599 5679.22
130127 5718.47
129663 5628.18
125379 5704.73
124945 5751.84
124751 5775.39
123523 5785.20
120599 5828.39
118560 5916.22
115095 5950.57
0 5967.74
0 5993.26
0 6152.24
0 6095.32
0 6110.04
0 6135.07
0 6072.75
0 6196.40
