count wavelength
148405 87.59
147926 89.40
147432 91.06
147377 92.10
147288 97.02
147139 94.67
147083 99.52
146537 95.36
145901 100.35
145790 103.40
144740 104.44
144732 107.91
144527 107.08
144472 110.40
143969 113.80
143630 112.14
143092 115.46
141598 119.14
140407 117.20
139093 122.67
139038 119.62
137977 124.27
137921 125.24
137494 130.72
137258 126.63
136722 128.22
134078 132.80
134077 134.81
133852 135.36
133505 141.67
132962 136.61
132571 140.01
132420 143.82
132360 143.26
130905 145.27
129765 147.49
129651 150.20
127122 152.07
126343 152.41
125061 156.02
124638 154.91
124609 159.07
123893 161.15
122147 163.65
121422 160.80
121048 164.62
119389 183.06
119044 166.14
118919 184.72
118059 170.44
117553 176.05
117027 169.33
115592 172.52
115576 186.87
115514 179.94
115486 178.48
114448 186.73
113480 176.61
113053 174.25
112351 190.27
