count wavelength
153918 9165.64
134979 9292.66
134113 12516.60
132036 12831.13
131782 12692.01
131685 11808.90
131402 11645.59
130610 12316.99
130485 12994.44
129437 13260.58
129363 12262.55
128181 11881.49
127540 13054.93
127421 11990.36
126467 13454.14
124726 13484.38
124217 13665.84
124096 11282.67
123772 11185.89
122321 11361.30
122288 9437.83
122257 10810.87
122221 14010.62
121481 10689.90
121125 10417.71
121100 10956.04
120268 10193.91
120070 10587.07
117713 10006.40
117701 14119.49
117272 9685.82
116685 9697.92
116482 8947.88
115887 14373.54
115563 8857.15
115455 5887.26
115425 8645.45
115194 13817.06
115121 9861.23
114972 8530.53
114860 8470.04
114241 8252.29
114146 7248.21
113508 7744.20
113254 8149.46
113190 7381.28
113032 7726.05
113004 7961.95
112948 7478.06
112601 5953.80
112595 6207.84
112576 5421.51
112553 6250.18
112471 6976.02
112433 5669.51
112430 6909.48
112235 5602.97
111802 6467.93
107839 6588.91
104352 6728.02
