count wavelength
229184 13925.94
228869 13550.92
227258 13750.53
226960 13974.33
223501 14222.32
221909 13339.22
218469 14367.49
217050 13181.95
216668 13036.78
213886 12316.99
203836 12589.18
200301 12510.55
199249 12879.52
198244 12800.88
196918 11821.00
196597 9238.22
195889 12117.39
193838 11808.90
193435 12014.56
192910 9383.39
191812 11512.52
191347 11379.45
188282 11101.21
188006 11210.09
187788 10792.73
176456 10925.80
176412 10738.29
176045 10454.00
175082 9480.17
172224 10314.88
170762 10193.91
170256 10006.40
166758 9601.14
162591 9849.14
162440 9734.21
161370 8941.84
158946 7278.45
158907 7272.40
157501 8814.81
153586 8651.50
149268 7490.16
144908 7816.78
144541 7726.05
141997 8488.19
141414 8228.09
141027 8397.46
140182 8095.02
139217 5911.45
139032 5959.84
138873 7961.95
138725 6171.55
138646 5457.80
137361 6219.94
136991 5542.49
136268 5639.26
135664 6498.18
135483 6976.02
135438 6613.10
135009 6842.95
134477 6715.93
