count wavelength
11103210 14252.56
11043013 14143.69
11033798 13931.99
10891307 13871.50
10577942 13629.55
10366390 13556.97
10138199 13339.22
10068121 13175.90
9944231 13024.69
9823853 12873.47
9674871 12498.45
8712212 12316.99
8399086 12595.23
8244584 12722.25
8176761 12117.39
8058904 11814.95
7956126 9238.22
7916579 12014.56
7910378 11808.90
7841999 9383.39
7752877 11512.52
7555400 11385.50
7457093 11210.09
7385138 11107.26
7338167 10919.75
6359982 10756.44
6354478 10611.27
6305175 10478.20
6179004 9474.12
6051467 10302.79
5765355 10157.62
5696886 10000.35
5333151 9867.28
5131810 9613.24
5119339 9752.36
4997050 8941.84
4690854 7278.45
4612782 7266.36
4491867 8820.86
4157005 8705.94
3885693 7810.74
3271882 7556.69
3231658 7726.05
3137383 8336.97
3115170 8488.19
3022990 8234.14
2736396 8095.02
2680110 5911.45
2679732 7974.05
2649307 6062.67
2635235 6159.45
2515527 5457.80
2392736 6219.94
2212733 5548.53
1946420 5633.22
1832335 6498.18
1776541 6982.07
1743353 6625.20
1648560 6824.80
1555555 6740.12
