count wavelength
229184 185.07
228869 180.77
227258 183.06
226960 185.62
223501 188.46
221909 178.34
218469 190.13
217050 176.54
216668 174.88
213886 166.63
203836 169.75
200301 168.84
199249 173.07
198244 172.17
196918 160.94
196597 131.34
195889 164.34
193838 160.80
193435 163.16
192910 133.00
191812 157.41
191347 155.88
188282 152.69
188006 153.94
187788 149.16
176456 150.68
176412 148.53
176045 145.27
175082 134.11
172224 143.68
170762 142.29
170256 140.14
166758 135.50
162591 138.34
162440 137.02
161370 127.94
158946 108.88
158907 108.81
157501 126.49
153586 124.61
149268 111.30
144908 115.05
144541 114.01
141997 122.74
141414 119.76
141027 121.70
140182 118.24
139217 93.21
139032 93.76
138873 116.71
138725 96.19
138646 88.01
137361 96.75
136991 88.98
136268 90.09
135664 99.93
135483 105.41
135438 101.25
135009 103.89
134477 102.43
