count wavelength
7735468 5828.88
7714985 5509.93
7636669 5534.46
7446608 5559.00
7276211 6134.58
6903276 5608.07
6503707 5632.60
6286712 5657.13
6152118 6103.17
6031750 5706.20
5771594 6098.27
5041439 5755.27
4152721 6147.83
2664987 5828.39
1878553 5509.44
0 5607.57
0 5705.71
0 5754.78
0 5801.89
0 5877.45
0 6188.55
0 5901.99
0 5926.52
0 5951.06
0 5975.59
0 5997.18
0 6017.30
0 6050.18
0 6049.20
