count wavelength
143530 87.87
142198 89.12
141982 94.80
141640 91.48
141509 92.17
141486 96.19
141430 98.41
141126 99.93
140886 101.67
140584 103.54
140341 104.86
140135 106.04
140123 108.67
139481 110.47
139405 112.27
139397 114.01
138758 115.95
138237 115.46
138073 119.14
137723 120.87
136135 122.53
134740 123.92
134359 124.55
133954 127.80
133590 128.84
132669 139.52
132188 138.06
131761 131.34
130908 132.93
130496 133.42
130129 135.08
130021 141.53
130003 143.47
129589 144.51
129494 146.66
128882 148.67
127550 148.88
127356 152.14
127180 153.80
125866 155.40
124264 159.07
122597 178.97
122412 157.13
122150 162.12
121245 181.67
119711 181.53
119100 160.80
117934 184.93
117149 163.85
116927 164.82
116486 167.39
116371 176.47
115205 169.19
115102 172.31
114476 175.29
114169 186.73
113559 171.06
113307 173.21
112480 188.33
111800 190.27
