count wavelength
229184 100.00
228869 162.00
227258 129.00
226960 92.00
223501 51.00
221909 197.00
218469 27.00
217050 223.00
216668 247.00
213886 366.00
203836 321.00
200301 334.00
199249 273.00
198244 286.00
196918 448.00
196597 875.00
195889 399.00
193838 450.00
193435 416.00
192910 851.00
191812 499.00
191347 521.00
188282 567.00
188006 549.00
187788 618.00
176456 596.00
176412 627.00
176045 674.00
175082 835.00
172224 697.00
170762 717.00
170256 748.00
166758 815.00
162591 774.00
162440 793.00
161370 924.00
158946 1199.00
158907 1200.00
157501 945.00
153586 972.00
149268 1164.00
144908 1110.00
144541 1125.00
141997 999.00
141414 1042.00
141027 1014.00
140182 1064.00
139217 1425.00
139032 1417.00
138873 1086.00
138725 1382.00
138646 1500.00
137361 1374.00
136991 1486.00
136268 1470.00
135664 1328.00
135483 1249.00
135438 1309.00
135009 1271.00
134477 1292.00
