count wavelength
7750975 5475.09
7726895 5487.35
7715903 5524.16
7703195 5499.13
7685412 5501.09
7679585 5535.93
7577912 5548.69
7485897 5560.96
7456936 5573.23
7373389 5585.49
7282906 5597.76
7266793 5610.03
7099344 5622.30
6967410 5634.56
6626670 5646.83
6570083 5658.61
6515492 5671.36
6505369 5675.78
6496210 5695.90
6386209 5708.17
6383193 5720.43
6375068 5729.27
6299643 5733.19
6280288 5757.24
6212118 5830.84
6085835 5765.09
6027588 5791.58
5933574 5781.77
5813225 5843.11
5752007 5794.53
5621643 5806.80
5615879 5854.88
5614630 5867.64
5525435 6198.86
5499338 5879.91
5462808 5892.18
5124564 6174.81
5075944 5904.44
4990328 6121.82
4792507 6125.75
4248607 6162.55
3917140 6151.75
3911297 5916.71
3895694 5928.98
3588329 5941.24
3271103 6138.01
3134761 5953.51
2864655 5960.38
2678074 5978.05
2645405 5980.50
2548962 6101.21
2455925 6002.58
2300043 6013.38
2263669 6015.83
2056441 6062.94
1843554 6051.65
1829543 6088.94
1754139 6066.37
1680190 6034.48
1491883 6076.68
