count wavelength
143530 5474.11
142198 5482.94
141982 5523.18
141640 5499.62
141509 5504.53
141486 5532.99
141430 5548.69
141126 5559.49
140886 5571.75
140584 5585.00
140341 5594.33
140135 5602.67
140123 5621.31
139481 5634.07
139405 5646.83
139397 5659.10
138758 5672.84
138237 5669.40
138073 5695.41
137723 5707.68
136135 5719.45
134740 5729.27
134359 5733.68
133954 5756.74
133590 5764.11
132669 5839.67
132188 5829.37
131761 5781.77
130908 5793.06
130496 5796.49
130129 5808.27
130021 5853.90
130003 5867.64
129589 5875.00
129494 5890.21
128882 5904.44
127550 5905.92
127356 5928.98
127180 5940.75
125866 5952.04
124264 5978.05
122597 6118.88
122412 5964.31
122150 5999.64
121245 6138.01
119711 6137.03
119100 5990.31
117934 6161.07
117149 6011.90
116927 6018.77
116486 6036.93
116371 6101.21
115205 6049.69
115102 6071.77
114476 6092.87
114169 6173.83
113559 6062.94
113307 6078.15
112480 6185.12
111800 6198.86
