count wavelength
123848 887.00
123464 851.00
122840 438.00
122556 399.00
122503 410.00
122364 474.00
121880 366.00
121746 486.00
121635 327.00
121326 272.00
118662 276.00
118550 521.00
117800 564.00
117645 304.00
116600 621.00
115903 549.00
115849 649.00
115715 665.00
115575 240.00
115469 837.00
115268 593.00
115038 204.00
114929 188.00
114910 720.00
114782 697.00
114238 733.00
114101 151.00
113825 794.00
113617 815.00
113132 769.00
112626 128.00
112237 924.00
112139 101.00
111873 946.00
111801 957.00
111448 86.00
111233 1122.00
111062 1199.00
111018 1020.00
110749 990.00
110741 1049.00
110561 1069.00
110494 1200.00
110479 51.00
110424 1426.00
110355 1125.00
110350 1097.00
110344 1166.00
110317 26.00
110046 1418.00
110033 1374.00
109873 1381.00
109837 1512.00
109561 1248.00
108944 1297.00
108935 1476.00
108803 1327.00
108497 1474.00
108421 1272.00
103612 1302.00
