count wavelength
139922 130.51
139889 133.07
139888 164.55
139773 166.63
139584 161.01
138946 169.12
138582 159.21
138013 162.88
137887 169.68
136339 172.24
133915 173.14
130224 177.72
128948 179.31
127927 175.08
127807 181.53
127635 157.61
126769 155.95
126606 148.19
126382 185.00
125924 183.33
125892 155.33
125788 150.75
125377 149.57
124873 152.76
123571 144.86
122134 186.11
120844 146.80
120244 134.25
120116 188.53
119743 139.59
119414 142.09
118857 140.14
118720 136.33
118036 136.95
117793 190.27
117766 128.01
117437 126.35
117341 124.48
117160 122.88
117105 108.95
117074 121.43
117030 114.22
116908 120.04
116866 108.81
115907 118.58
115586 93.14
115129 116.02
115082 114.01
114988 111.17
114628 94.39
114615 96.33
114566 96.75
114200 87.39
114173 105.55
114065 99.80
114037 103.68
113944 101.39
113846 90.30
113831 89.67
105371 102.71
