count wavelength
123848 130.51
123464 133.00
122840 161.64
122556 164.34
122503 163.58
122364 159.14
121880 166.63
121746 158.31
121635 169.33
121326 173.14
118662 172.87
118550 155.88
117800 152.90
117645 170.92
116600 148.95
115903 153.94
115849 147.01
115715 145.90
115575 175.36
115469 133.97
115268 150.89
115038 177.86
114929 178.97
114910 142.09
114782 143.68
114238 141.18
114101 181.53
113825 136.95
113617 135.50
113132 138.69
112626 183.13
112237 127.94
112139 185.00
111873 126.42
111801 125.65
111448 186.04
111233 114.22
111062 108.88
111018 121.29
110749 123.37
110741 119.28
110561 117.89
110494 108.81
110479 188.46
110424 93.14
110355 114.01
110350 115.95
110344 111.17
110317 190.20
110046 93.70
110033 96.75
109873 96.26
109837 87.18
109561 105.48
108944 102.08
108935 89.67
108803 100.00
108497 89.81
108421 103.82
103612 101.74
