count wavelength
145714 5472.14
144541 5486.37
144486 5495.21
143961 5536.42
143933 5504.04
143802 5513.85
143799 5548.69
143788 5560.47
143625 5562.43
143514 5579.11
143208 5611.99
143005 5610.03
142985 5591.87
142805 5623.28
142550 5641.92
142280 5658.12
142197 5671.36
142135 5681.67
141719 5694.43
141676 5708.17
141286 5717.00
141083 5729.76
140697 5740.55
140601 5754.78
140593 5951.55
140505 5920.15
140331 5929.96
140215 5973.63
140133 5996.20
140006 5964.31
139819 6010.92
139606 5990.31
139498 5905.92
139468 5892.18
139463 5892.67
139174 5768.03
138236 6033.49
136016 5781.28
135309 6024.66
134219 5870.09
133176 6041.35
132089 5866.17
131222 5796.00
130012 5792.07
129096 6058.52
129013 6074.22
127829 5845.56
127049 5831.33
127015 5813.17
126758 5820.53
125870 6173.83
123716 6149.30
122897 6153.22
118487 6093.85
118155 6186.59
117712 6088.45
117657 6133.11
116427 6117.40
115938 6101.70
114740 6198.86
