count wavelength
139922 887.00
139889 850.00
139888 396.00
139773 366.00
139584 447.00
138946 330.00
138582 473.00
138013 420.00
137887 322.00
136339 285.00
133915 272.00
130224 206.00
128948 183.00
127927 244.00
127807 151.00
127635 496.00
126769 520.00
126606 632.00
126382 101.00
125924 125.00
125892 529.00
125788 595.00
125377 612.00
124873 566.00
123571 680.00
122134 85.00
120844 652.00
120244 833.00
120116 50.00
119743 756.00
119414 720.00
118857 748.00
118720 803.00
118036 794.00
117793 25.00
117766 923.00
117437 947.00
117341 974.00
117160 997.00
117105 1198.00
117074 1018.00
117030 1122.00
116908 1038.00
116866 1200.00
115907 1059.00
115586 1426.00
115129 1096.00
115082 1125.00
114988 1166.00
114628 1408.00
114615 1380.00
114566 1374.00
114200 1509.00
114173 1247.00
114065 1330.00
114037 1274.00
113944 1307.00
113846 1467.00
113831 1476.00
105371 1288.00
