count wavelength
145714 87.59
144541 89.60
144486 90.85
143961 96.68
143933 92.10
143802 93.49
143799 98.41
143788 100.07
143625 100.35
143514 102.71
143208 107.35
143005 107.08
142985 104.51
142805 108.95
142550 111.58
142280 113.87
142197 115.74
142135 117.20
141719 119.00
141676 120.94
141286 122.19
141083 123.99
140697 125.52
140601 127.53
140593 155.33
140505 150.89
140331 152.28
140215 158.45
140133 161.64
140006 157.13
139819 163.71
139606 160.80
139498 148.88
139468 146.94
139463 147.01
139174 129.40
138236 166.90
136016 131.27
135309 165.66
134219 143.82
133176 168.01
132089 143.26
131222 133.35
130012 132.80
129096 170.44
129013 172.66
127829 140.35
127049 138.34
127015 135.78
126758 136.82
125870 186.73
123716 183.26
122897 183.82
118487 175.43
118155 188.53
117712 174.67
117657 180.98
116427 178.76
115938 176.54
114740 190.27
