count wavelength
123848 9165.64
123464 9383.39
122840 11881.49
122556 12117.39
122503 12050.85
122364 11663.74
121880 12316.99
121746 11591.15
121635 12552.89
121326 12885.57
118662 12861.37
118550 11379.45
117800 11119.36
117645 12692.01
116600 10774.58
115903 11210.09
115849 10605.22
115715 10508.44
115575 13079.12
115469 9468.07
115268 10943.94
115038 13296.88
114929 13393.65
114910 10175.76
114782 10314.88
114238 10097.13
114101 13617.45
113825 9728.16
113617 9601.14
113132 9879.38
112626 13756.57
112237 8941.84
112139 13919.89
111873 8808.77
111801 8742.23
111448 14010.62
111233 7744.20
111062 7278.45
111018 8361.16
110749 8542.62
110741 8185.75
110561 8064.78
110494 7272.40
110479 14222.32
110424 5905.41
110355 7726.05
110350 7895.42
110344 7478.06
110317 14373.54
110046 5953.80
110033 6219.94
109873 6177.60
109837 5385.22
109561 6982.07
108944 6685.68
108935 5602.97
108803 6504.22
108497 5615.07
108421 6836.90
103612 6655.44
