count wavelength
139922 9165.64
139889 9389.44
139888 12135.53
139773 12316.99
139584 11827.05
138946 12534.74
138582 11669.78
138013 11990.36
137887 12583.13
136339 12806.93
133915 12885.57
130224 13284.78
128948 13423.90
127927 13054.93
127807 13617.45
127635 11530.67
126769 11385.50
126606 10708.05
126382 13919.89
125924 13774.72
125892 11331.06
125788 10931.85
125377 10829.02
124873 11107.26
123571 10417.71
122134 14016.67
120844 10587.07
120244 9492.26
120116 14228.37
119743 9958.01
119414 10175.76
118857 10006.40
118720 9673.72
118036 9728.16
117793 14379.59
117766 8947.88
117437 8802.72
117341 8639.40
117160 8500.28
117105 7284.50
117074 8373.26
117030 7744.20
116908 8252.29
116866 7272.40
115907 8125.27
115586 5905.41
115129 7901.47
115082 7726.05
114988 7478.06
114628 6014.28
114615 6183.64
114566 6219.94
114200 5403.37
114173 6988.12
114065 6486.08
114037 6824.80
113944 6625.20
113846 5657.41
113831 5602.97
105371 6740.12
