count wavelength
128778 5595.80
115572 5620.33
114180 5471.16
111747 5775.88
110889 5486.86
108775 5660.57
108458 5539.37
108302 5717.49
107860 5659.10
107273 5491.28
106987 5750.86
105863 5503.06
105776 5693.45
105714 5797.96
105326 5769.50
105113 5818.08
104577 5606.59
104246 5678.23
104021 5732.70
103973 5859.30
103927 5741.04
103912 5631.13
103749 5829.37
103664 5528.08
103627 5832.31
103611 5578.13
103395 5638.98
103355 5701.79
103326 5877.45
103280 5851.45
103228 5951.06
103163 5571.26
103066 5557.03
102993 5894.63
102948 5909.35
102931 5921.13
102914 5891.19
102747 5939.77
102707 5515.32
102690 5974.61
102686 5965.29
102666 5990.80
102639 5990.31
102604 6005.03
102574 6037.91
102573 6047.73
102555 6073.24
102555 6026.13
102551 6061.96
102473 6087.96
102429 6091.40
102314 6104.65
102306 6133.60
102244 6123.78
102135 6140.96
102127 6161.57
102111 6168.93
102041 6181.68
101959 6197.39
101778 5788.15
