count wavelength
181851 399.00
181711 363.00
181669 146.00
181363 184.00
181341 444.00
181263 410.00
180015 203.00
179929 241.00
179098 319.00
174146 335.00
172821 272.00
162812 101.00
162598 158.00
161942 277.00
161805 85.00
159119 50.00
158921 850.00
158854 472.00
158557 25.00
158206 499.00
157630 523.00
156422 549.00
154664 559.00
152761 593.00
148944 623.00
142535 644.00
141401 670.00
140917 826.00
140098 696.00
139713 723.00
138951 744.00
137923 808.00
137701 774.00
135725 798.00
134424 899.00
133709 924.00
133007 946.00
131971 974.00
131748 998.00
131154 1106.00
129664 1062.00
128627 1024.00
126179 1149.00
125903 1097.00
125828 1049.00
125768 1200.00
125279 1199.00
125010 1425.00
124821 1166.00
124577 1400.00
124502 1379.00
124502 1338.00
124460 1350.00
124311 1249.00
124272 1274.00
124067 1294.00
124060 1520.00
123887 1474.00
123839 1307.00
123072 1496.00
