count wavelength
135911 9165.64
135724 12105.29
135300 12117.39
134896 9389.44
134851 11766.56
134505 11827.05
134391 12413.77
134041 12903.71
132292 12861.37
131294 12552.89
129397 12667.81
128209 11524.62
127598 13054.93
127416 13442.04
126835 13284.78
126756 11179.84
126603 13556.97
126448 11367.35
126443 10956.04
126397 11216.13
126275 10623.37
126150 10859.26
125786 13901.74
124261 9480.17
122458 13768.67
120280 10538.68
118894 10423.76
118458 10163.67
118323 14071.10
118024 10133.42
117739 9697.92
117608 14228.37
117310 9582.99
116284 9855.18
116267 14373.54
115738 8941.84
115730 8802.72
115609 8639.40
115591 8488.19
115403 7302.65
115219 8385.36
115113 7744.20
115040 7726.05
114954 5905.41
114941 7883.32
114400 8185.75
114332 7272.40
114294 8143.41
114105 7478.06
113392 6002.18
113057 6183.64
113007 6225.99
112801 6486.08
112521 6982.07
112472 6734.07
112095 6867.14
111965 6588.91
111590 5627.17
111533 5379.17
109685 5602.97
