count wavelength
181851 12117.39
181711 12335.14
181669 13647.70
181363 13417.85
181341 11845.20
181263 12050.85
180015 13302.92
179929 13073.07
179098 12601.28
174146 12504.50
172821 12885.57
162812 13919.89
162598 13575.11
161942 12855.32
161805 14016.67
159119 14228.37
158921 9389.44
158854 11675.83
158557 14379.59
158206 11512.52
157630 11367.35
156422 11210.09
154664 11149.60
152761 10943.94
148944 10762.48
142535 10635.46
141401 10478.20
140917 9534.61
140098 10320.93
139713 10157.62
138951 10030.60
137923 9643.48
137701 9849.14
135725 9703.97
134424 9093.05
133709 8941.84
133007 8808.77
131971 8639.40
131748 8494.23
131154 7840.98
129664 8107.12
128627 8336.97
126179 7580.89
125903 7895.42
125828 8185.75
125768 7272.40
125279 7278.45
125010 5911.45
124821 7478.06
124577 6062.67
124502 6189.69
124502 6437.69
124460 6365.10
124311 6976.02
124272 6824.80
124067 6703.83
124060 5336.83
123887 5615.07
123839 6625.20
123072 5482.00
