count wavelength
135911 887.00
135724 401.00
135300 399.00
134896 850.00
134851 457.00
134505 447.00
134391 350.00
134041 269.00
132292 276.00
131294 327.00
129397 308.00
128209 497.00
127598 244.00
127416 180.00
126835 206.00
126756 554.00
126603 161.00
126448 523.00
126443 591.00
126397 548.00
126275 646.00
126150 607.00
125786 104.00
124261 835.00
122458 126.00
120280 660.00
118894 679.00
118458 722.00
118323 76.00
118024 727.00
117739 799.00
117608 50.00
117310 818.00
116284 773.00
116267 26.00
115738 924.00
115730 947.00
115609 974.00
115591 999.00
115403 1195.00
115219 1016.00
115113 1122.00
115040 1125.00
114954 1426.00
114941 1099.00
114400 1049.00
114332 1200.00
114294 1056.00
114105 1166.00
113392 1410.00
113057 1380.00
113007 1373.00
112801 1330.00
112521 1248.00
112472 1289.00
112095 1267.00
111965 1313.00
111590 1472.00
111533 1513.00
109685 1476.00
