count wavelength
135911 130.51
135724 164.20
135300 164.34
134896 133.07
134851 160.32
134505 161.01
134391 167.74
134041 173.35
132292 172.87
131294 169.33
129397 170.65
128209 157.54
127598 175.08
127416 179.52
126835 177.72
126756 153.59
126603 180.84
126448 155.74
126443 151.03
126397 154.01
126275 147.22
126150 149.92
125786 184.79
124261 134.11
122458 183.26
120280 146.24
118894 144.93
118458 141.95
118323 186.73
118024 141.60
117739 136.61
117608 188.53
117310 135.29
116284 138.41
116267 190.20
115738 127.94
115730 126.35
115609 124.48
115591 122.74
115403 109.16
115219 121.56
115113 114.22
115040 114.01
114954 93.14
114941 115.81
114400 119.28
114332 108.81
114294 118.79
114105 111.17
113392 94.25
113057 96.33
113007 96.81
112801 99.80
112521 105.48
112472 102.64
112095 104.16
111965 100.97
111590 89.95
111533 87.11
109685 89.67
