count wavelength
181851 164.34
181711 166.83
181669 181.88
181363 179.24
181341 161.22
181263 163.58
180015 177.93
179929 175.29
179098 169.88
174146 168.78
172821 173.14
162812 185.00
162598 181.05
161942 172.80
161805 186.11
159119 188.53
158921 133.07
158854 159.28
158557 190.27
158206 157.41
157630 155.74
156422 153.94
154664 153.25
152761 150.89
148944 148.81
142535 147.35
141401 145.55
140917 134.74
140098 143.75
139713 141.88
138951 140.42
137923 135.98
137701 138.34
135725 136.68
134424 129.68
133709 127.94
133007 126.42
131971 124.48
131748 122.81
131154 115.33
129664 118.38
128627 121.01
126179 112.34
125903 115.95
125828 119.28
125768 108.81
125279 108.88
125010 93.21
124821 111.17
124577 94.94
124502 96.40
124502 99.24
124460 98.41
124311 105.41
124272 103.68
124067 102.29
124060 86.62
123887 89.81
123839 101.39
123072 88.29
